timestamp_ms,PPG_G1,PPG_G2,PPG_G3,PPG_G4,allow_measure
0,3338182,3708818,3536433,3134694,1
20,3338371,3709633,3536697,3134836,1
40,3337070,3708646,3535692,3133476,1
60,3334688,3706958,3533091,3131599,1
80,3331940,3704659,3530222,3129598,1
100,3329014,3702290,3526962,3127199,1
120,3326316,3700407,3523869,3125095,1
140,3323502,3697753,3521008,3122985,1
160,3321173,3696189,3518386,3121315,1
180,3318932,3693992,3515860,3119589,1
200,3316981,3692602,3513832,3117809,1
220,3315134,3690968,3511544,3116453,1
240,3313527,3689485,3509811,3115076,1
260,3312240,3688656,3508596,3114139,1
280,3311364,3687897,3507629,3113446,1
300,3310807,3687515,3507149,3113266,1
320,3310461,3687229,3507064,3113156,1
340,3310390,3687345,3506836,3113425,1
360,3310219,3687228,3507098,3113271,1
380,3310444,3687349,3507332,3113601,1
400,3311031,3687287,3507767,3113597,1
420,3310370,3686537,3507416,3113431,1
440,3310238,3686435,3507746,3113616,1
460,3310631,3686776,3508001,3113937,1
480,3310891,3686680,3508677,3114203,1
500,3310852,3686945,3509291,3114570,1
520,3311235,3687098,3509894,3115258,1
540,3311980,3687540,3510747,3115650,1
560,3312456,3687697,3511520,3116181,1
580,3313254,3688112,3512857,3116872,1
600,3314099,3688849,3514004,3117896,1
620,3314993,3689325,3515130,3118551,1
640,3315920,3689853,3516631,3119645,1
660,3316685,3690282,3517815,3120643,1
680,3317880,3691482,3519311,3121778,1
700,3318974,3692234,3520590,3122743,1
720,3320134,3692912,3522434,3123886,1
740,3321399,3693845,3523985,3125010,1
760,3322686,3694719,3525521,3126017,1
780,3324110,3695757,3527175,3127552,1
800,3325072,3697024,3528898,3128512,1
820,3326611,3698044,3530650,3129851,1
840,3327995,3698968,3532383,3131349,1
860,3329286,3700201,3534336,3132531,1
880,3331216,3701408,3536021,3134137,1
900,3332336,3702640,3537955,3135312,1
920,3333819,3703249,3539764,3136269,1
940,3334076,3703431,3540554,3136899,1
960,3332585,3702180,3539321,3135569,1
980,3330427,3699880,3537632,3133682,1
1000,3327809,3697558,3534897,3131152,1
1020,3324992,3694703,3531907,3128992,1
1040,3322213,3692298,3528743,3126765,1
1060,3319547,3690126,3526014,3124894,1
1080,3317282,3687534,3523981,3123149,1
1100,3315465,3685198,3521488,3121448,1
1120,3313655,3683526,3519710,3119749,1
1140,3311844,3681906,3518210,3118548,1
1160,3310576,3680379,3516879,3117683,1
1180,3309286,3678985,3515867,3116906,1
1200,3308768,3678315,3514971,3116359,1
1220,3308755,3677797,3515122,3116170,1
1240,3308805,3677438,3515372,3116295,1
1260,3308696,3676958,3515692,3116168,1
1280,3308642,3676654,3515715,3116202,1
1300,3308852,3676258,3515885,3116389,1
1320,3308968,3675757,3516308,3116374,1
1340,3309181,3675655,3516739,3116242,1
1360,3309135,3675351,3516735,3116139,1
1380,3309148,3674975,3516996,3116109,1
1400,3309641,3674867,3517625,3116406,1
1420,3309513,3674741,3518269,3116563,1
1440,3310391,3675228,3519049,3117132,1
1460,3311054,3675241,3519793,3117809,1
1480,3311832,3675786,3520678,3118085,1
1500,3312696,3676029,3521533,3118771,1
1520,3313638,3676775,3522734,3119606,1
1540,3314713,3677355,3523762,3120271,1
1560,3315831,3678309,3524979,3121249,1
1580,3316689,3679198,3526011,3122192,1
1600,3318160,3680226,3527298,3123002,1
1620,3319271,3680989,3528968,3123860,1
1640,3320447,3682232,3530364,3124885,1
1660,3321643,3683390,3531387,3125782,1
1680,3323204,3684709,3533250,3127118,1
1700,3324700,3685947,3534797,3128064,1
1720,3326211,3687382,3536472,3129065,1
1740,3327422,3688847,3538009,3130304,1
1760,3329076,3690324,3539644,3131732,1
1780,3330583,3691786,3541436,3132770,1
1800,3332302,3693220,3542794,3133914,1
1820,3332684,3693397,3543184,3133972,1
1840,3331447,3692606,3542632,3132794,1
1860,3329394,3690997,3540150,3130854,1
1880,3326894,3689021,3537260,3128752,1
1900,3324391,3686977,3534431,3126593,1
1920,3321825,3684780,3531397,3124657,1
1940,3319501,3682997,3528815,3122664,1
1960,3317208,3681141,3526365,3121109,1
1980,3315340,3679457,3524500,3119527,1
2000,3313755,3678201,3522544,3118291,1
2020,3312276,3677025,3520676,3117158,1
2040,3310799,3676040,3519484,3116340,1
2060,3310257,3675594,3518411,3115675,1
2080,3309534,3674892,3517974,3115265,1
2100,3309363,3674864,3517557,3115396,1
2120,3309649,3675051,3517638,3115492,1
2140,3309904,3675113,3518050,3115729,1
2160,3309998,3675852,3518367,3116000,1
2180,3310695,3676269,3518700,3116299,1
2200,3310559,3676118,3519040,3116285,1
2220,3310624,3676318,3519264,3116387,1
2240,3311337,3676841,3519565,3117073,1
2260,3311520,3677154,3519935,3117050,1
2280,3311708,3677591,3520697,3117451,1
2300,3312188,3678239,3521335,3117953,1
2320,3313068,3678662,3522373,3118610,1
2340,3313602,3679606,3523341,3119498,1
2360,3314771,3680721,3524287,3120355,1
2380,3315666,3681694,3525368,3121024,1
2400,3316670,3682551,3526457,3122033,1
2420,3317613,3683652,3528252,3123144,1
2440,3318918,3684973,3529336,3124272,1
2460,3320146,3686629,3530598,3125474,1
2480,3321297,3687519,3532330,3126411,1
2500,3322556,3688919,3533705,3127654,1
2520,3324067,3690419,3535539,3128980,1
2540,3325453,3691556,3537130,3130102,1
2560,3327033,3693305,3538699,3131587,1
2580,3328653,3694803,3540154,3132947,1
2600,3330370,3696756,3542333,3134269,1
2620,3331966,3698119,3544158,3135864,1
2640,3333683,3699785,3546215,3137190,1
2660,3335041,3701225,3547856,3138583,1
2680,3336705,3703014,3550178,3140221,1
2700,3338383,3704708,3551704,3141613,1
2720,3339350,3705647,3552792,3142153,1
2740,3338651,3705350,3552401,3141961,1
2760,3336554,3703803,3550528,3139864,1
2780,3334127,3701663,3547802,3138253,1
2800,3331105,3699731,3545161,3136001,1
2820,3328549,3697523,3541880,3133878,1
2840,3325672,3695367,3539227,3131935,1
2860,3323190,3693416,3536405,3130397,1
2880,3320909,3691505,3534081,3128656,1
2900,3319051,3689918,3532139,3127242,1
2920,3317229,3688301,3530137,3125810,1
2940,3315637,3687531,3528592,3124966,1
2960,3314194,3686219,3527441,3123858,1
2980,3313015,3685432,3525822,3123158,1
3000,3312395,3685333,3525556,3122791,1
3020,3312371,3685035,3525251,3122704,1
3040,3312516,3684993,3525326,3122753,1
3060,3312555,3685254,3525443,3122654,1
3080,3312554,3685604,3525961,3123047,1
3100,3313011,3685876,3526061,3123419,1
3120,3313251,3685961,3526765,3123722,1
3140,3312954,3686118,3527115,3123631,1
3160,3313468,3686344,3527449,3124223,1
3180,3313612,3686752,3528117,3124198,1
3200,3314099,3687028,3528371,3124614,1
3220,3314662,3687447,3529740,3125042,1
3240,3315224,3688260,3530293,3125933,1
3260,3316103,3688726,3531364,3126479,1
3280,3317076,3689631,3532430,3127232,1
3300,3317975,3690581,3533567,3128150,1
3320,3319231,3691533,3535046,3128988,1
3340,3320302,3692362,3536521,3130004,1
3360,3321564,3693307,3538076,3130930,1
3380,3322805,3694449,3539512,3131885,1
3400,3324346,3695496,3541049,3132987,1
3420,3325672,3696539,3542524,3133882,1
3440,3326919,3697989,3544453,3135079,1
3460,3328579,3698673,3545839,3136528,1
3480,3330157,3700494,3547696,3137637,1
3500,3331745,3702026,3549366,3138971,1
3520,3333254,3703442,3551389,3140500,1
3540,3335005,3704669,3553618,3141493,1
3560,3336569,3706565,3555605,3143091,1
3580,3338150,3708006,3557182,3144768,1
3600,3339990,3709228,3559430,3146092,1
3620,3341609,3710889,3561202,3147310,1
3640,3342477,3711723,3562167,3148014,1
3660,3342217,3711191,3562498,3147567,1
3680,3339922,3709574,3560274,3146262,1
3700,3337396,3707369,3557737,3143927,1
3720,3334828,3705431,3555072,3141896,1
3740,3331936,3703193,3552564,3140064,1
3760,3329762,3700852,3550008,3138344,1
3780,3327393,3698751,3547571,3136547,1
3800,3325300,3697107,3545456,3135144,1
3820,3323090,3695280,3543774,3133874,1
3840,3321575,3693775,3541918,3132770,1
3860,3319858,3692583,3540565,3131706,1
3880,3318987,3691495,3539434,3130839,1
3900,3318349,3690464,3538943,3130395,1
3920,3318389,3690245,3538643,3130221,1
3940,3317744,3689582,3538845,3130188,1
3960,3317969,3689631,3538813,3130350,1
3980,3318201,3689378,3539216,3130453,1
4000,3318126,3688819,3540014,3130616,1
4020,3318349,3689024,3540191,3130355,1
4040,3318381,3688841,3540512,3130718,1
4060,3318570,3688507,3540992,3131045,1
4080,3318744,3688390,3541542,3131126,1
4100,3318937,3688262,3541759,3131168,1
4120,3319172,3688281,3542326,3131504,1
4140,3319637,3688475,3543240,3131723,1
4160,3320091,3688794,3544039,3132335,1
4180,3320989,3689192,3545156,3133047,1
4200,3321845,3689489,3546100,3133414,1
4220,3322507,3689846,3547368,3134490,1
4240,3323491,3690241,3548419,3135110,1
4260,3324641,3690775,3549651,3135790,1
4280,3325419,3691810,3551145,3136780,1
4300,3326711,3692468,3552670,3137535,1
4320,3328054,3693226,3554168,3138568,1
4340,3329246,3694349,3555737,3139566,1
4360,3330834,3695190,3557423,3140796,1
4380,3331923,3696085,3559082,3141541,1
4400,3333360,3696968,3560727,3142820,1
4420,3334748,3698184,3562460,3143825,1
4440,3336097,3699208,3564596,3144987,1
4460,3337463,3700131,3566179,3146553,1
4480,3339357,3701497,3568204,3147682,1
4500,3340830,3702411,3569747,3148987,1
4520,3342327,3703422,3571687,3150029,1
4540,3342948,3704053,3572475,3150665,1
4560,3342298,3703095,3572181,3149836,1
4580,3340485,3701274,3570529,3147933,1
4600,3338028,3699005,3568075,3145870,1
4620,3335332,3696690,3565555,3143738,1
4640,3333364,3694489,3563171,3141942,1
4660,3330946,3692206,3560619,3140264,1
4680,3328623,3690111,3558755,3138916,1
4700,3327021,3688407,3556795,3137323,1
4720,3325130,3686646,3554953,3135873,1
4740,3323908,3685304,3553788,3134897,1
4760,3322633,3683853,3552717,3133874,1
4780,3321804,3683063,3551853,3133346,1
4800,3321511,3681887,3551202,3132970,1
4820,3321785,3681885,3551220,3133006,1
4840,3321938,3681505,3551623,3132773,1
4860,3322133,3681670,3551651,3132886,1
4880,3322115,3681531,3552005,3132818,1
4900,3322368,3681643,3552367,3133104,1
4920,3322699,3681299,3552375,3132900,1
4940,3322788,3681080,3552386,3132879,1
4960,3322994,3681180,3552577,3133093,1
4980,3323062,3681156,3552911,3133021,1
5000,3323682,3681375,3553370,3133153,1
5020,3324110,3681828,3554001,3133531,1
5040,3324760,3681977,3554538,3133829,1
5060,3325436,3682746,3554987,3134295,1
5080,3326499,3683462,3555897,3135051,1
5100,3327094,3683940,3556677,3135558,1
5120,3328071,3684750,3557831,3136028,1
5140,3329386,3686031,3558746,3136795,1
5160,3330122,3687024,3559749,3137503,1
5180,3331394,3687840,3560909,3138359,1
5200,3332973,3689548,3562129,3139420,1
5220,3334178,3690553,3563459,3140332,1
5240,3335619,3691826,3564915,3141128,1
5260,3336909,3693664,3566409,3142176,1
5280,3338471,3695090,3567537,3143215,1
5300,3339841,3696608,3569148,3144405,1
5320,3341511,3698080,3570952,3145510,1
5340,3343057,3699686,3572180,3146782,1
5360,3344962,3701471,3574031,3147816,1
5380,3346355,3703040,3575816,3149050,1
5400,3347397,3704238,3577045,3149726,1
5420,3347500,3704695,3576761,3149517,1
5440,3345615,3702967,3574915,3147907,1
5460,3343093,3701520,3572284,3145735,1
5480,3340407,3699733,3569551,3143594,1
5500,3337922,3697612,3566860,3141470,1
5520,3335111,3695653,3564050,3139463,1
5540,3333184,3693879,3561545,3137771,1
5560,3331138,3692692,3559098,3136260,1
5580,3329221,3690989,3557241,3134670,1
5600,3327469,3689623,3555125,3133338,1
5620,3326065,3688849,3553479,3132231,1
5640,3325179,3687735,3551719,3131377,1
5660,3323991,3687234,3550905,3130531,1
5680,3323991,3687294,3550469,3130210,1
5700,3323351,3687038,3550055,3130051,1
5720,3323666,3687358,3549857,3130082,1
5740,3323725,3687328,3550019,3130117,1
5760,3323961,3687530,3550429,3130225,1
5780,3324174,3687912,3550575,3130503,1
5800,3324728,3688137,3550751,3130403,1
5820,3324883,3688193,3550444,3130410,1
5840,3325342,3688342,3550628,3130387,1
5860,3325627,3688728,3550898,3130658,1
5880,3326029,3689410,3551595,3131100,1
5900,3326582,3690043,3551721,3131264,1
5920,3327125,3690655,3552688,3132176,1
5940,3328028,3691482,3553236,3132684,1
5960,3328802,3692509,3554082,3133346,1
5980,3329977,3693116,3555297,3134063,1
6000,3330632,3693926,3556230,3134807,1
6020,3332131,3694973,3557639,3136064,1
6040,3333279,3696402,3558827,3136761,1
6060,3334644,3697534,3560221,3137760,1
6080,3335728,3698650,3561742,3139005,1
6100,3337149,3699697,3562962,3139860,1
6120,3338451,3701053,3564407,3140935,1
6140,3339869,3702560,3566114,3141859,1
6160,3341409,3703996,3567463,3142951,1
6180,3342834,3705456,3569505,3144441,1
6200,3344323,3706967,3570978,3145516,1
6220,3345883,3708559,3572796,3147142,1
6240,3347492,3710167,3574311,3148288,1
6260,3349077,3711897,3576338,3149422,1
6280,3350594,3712963,3578111,3150946,1
6300,3352296,3715031,3579988,3152372,1
6320,3352872,3715550,3580644,3152813,1
6340,3351934,3714931,3580068,3151651,1
6360,3349724,3713676,3578272,3150007,1
6380,3347223,3711449,3575307,3147748,1
6400,3344242,3709251,3572610,3145410,1
6420,3341596,3707290,3569654,3143492,1
6440,3338672,3704993,3566500,3141551,1
6460,3336301,3703059,3564037,3139328,1
6480,3334344,3701525,3561908,3137896,1
6500,3331873,3699738,3559562,3136069,1
6520,3330088,3698178,3557427,3134436,1
6540,3328475,3696888,3555831,3133259,1
6560,3327068,3695812,3553994,3132269,1
6580,3325502,3694877,3552913,3131470,1
6600,3325263,3694382,3551999,3130977,1
6620,3324697,3694066,3551525,3130633,1
6640,3324611,3694347,3551795,3130737,1
6660,3324493,3693968,3551502,3130771,1
6680,3324575,3694094,3551514,3130554,1
6700,3324503,3694068,3551643,3130631,1
6720,3324297,3693594,3551700,3130320,1
6740,3324303,3693607,3551634,3130275,1
6760,3324033,3693416,3551770,3130401,1
6780,3324205,3693529,3552226,3130650,1
6800,3324263,3693460,3552411,3130758,1
6820,3324748,3693885,3552806,3130843,1
6840,3325108,3694100,3553538,3131504,1
6860,3325427,3694181,3554224,3131916,1
6880,3325944,3694697,3554902,3132724,1
6900,3326820,3695096,3555758,3133181,1
6920,3327454,3695704,3557212,3134069,1
6940,3328379,3696282,3558355,3134896,1
6960,3329354,3696737,3559137,3135429,1
6980,3329866,3697664,3560680,3136392,1
7000,3331118,3698399,3561997,3137163,1
7020,3332100,3699166,3563377,3137807,1
7040,3333224,3700201,3564734,3138583,1
7060,3334335,3700939,3566133,3139877,1
7080,3335098,3701918,3567593,3140840,1
7100,3336631,3703248,3569005,3141847,1
7120,3337859,3704410,3570612,3142907,1
7140,3339117,3705688,3572382,3144224,1
7160,3340447,3707046,3573740,3145312,1
7180,3341975,3708125,3575462,3146598,1
7200,3343505,3709457,3577242,3147948,1
7220,3344737,3710690,3578638,3149189,1
7240,3346369,3711353,3580011,3150008,1
7260,3345985,3711733,3580489,3149771,1
7280,3344644,3710186,3578886,3148510,1
7300,3342058,3708510,3576362,3146384,1
7320,3339193,3705830,3573483,3144309,1
7340,3336437,3703378,3570557,3142365,1
7360,3333853,3700898,3567996,3140197,1
7380,3331588,3698911,3565066,3138378,1
7400,3329195,3696946,3562452,3136570,1
7420,3326696,3694253,3560083,3135004,1
7440,3325368,3692717,3557815,3133416,1
7460,3323050,3690745,3555964,3132046,1
7480,3321762,3689453,3554275,3131168,1
7500,3320348,3687968,3552451,3129951,1
7520,3319511,3686900,3551823,3129245,1
7540,3319382,3686452,3551179,3129103,1
7560,3319052,3685868,3550709,3129095,1
7580,3318920,3685337,3550486,3128765,1
7600,3318955,3684767,3550335,3128536,1
7620,3318591,3684073,3550040,3128606,1
7640,3318464,3683854,3549952,3128459,1
7660,3318198,3683387,3549857,3128117,1
7680,3318094,3683061,3549345,3128066,1
7700,3318064,3682527,3549401,3127807,1
7720,3318259,3682241,3549432,3127636,1
7740,3318438,3682374,3549383,3127741,1
7760,3318930,3682217,3549787,3127915,1
7780,3319618,3682591,3550256,3128132,1
7800,3320120,3682937,3550799,3128600,1
7820,3320873,3683014,3551710,3128933,1
7840,3321585,3683483,3552167,3129483,1
7860,3322744,3684034,3552923,3130125,1
7880,3323489,3684829,3553856,3130716,1
7900,3324711,3685766,3555023,3131427,1
7920,3325939,3686599,3555886,3132046,1
7940,3327196,3687531,3557048,3132983,1
7960,3328472,3688475,3558074,3133929,1
7980,3329663,3689368,3559363,3134849,1
8000,3330638,3690644,3560476,3135975,1
8020,3332021,3691865,3561831,3136812,1
8040,3333534,3692995,3563028,3137843,1
8060,3335070,3694467,3564552,3138678,1
8080,3336231,3695917,3565922,3139889,1
8100,3337997,3697156,3567165,3141213,1
8120,3338728,3698435,3568209,3141557,1
8140,3338788,3698490,3568277,3141388,1
8160,3337406,3697473,3566661,3139783,1
8180,3335089,3695439,3564101,3137388,1
8200,3332342,3693626,3560788,3135036,1
8220,3329411,3691442,3557479,3132868,1
8240,3326569,3689085,3554313,3130431,1
8260,3324269,3687288,3550881,3128525,1
8280,3322259,3685546,3548142,3126651,1
8300,3320034,3683883,3545528,3124961,1
8320,3318069,3682372,3543104,3123323,1
8340,3316566,3681070,3540955,3122103,1
8360,3315176,3679969,3539224,3120945,1
8380,3314010,3679201,3537817,3120080,1
8400,3313164,3678683,3536907,3119298,1
8420,3313298,3678790,3536561,3119466,1
8440,3313424,3678942,3536346,3119391,1
8460,3313597,3679208,3535968,3119662,1
8480,3313438,3679580,3535709,3119472,1
8500,3313279,3679884,3535828,3119646,1
8520,3313370,3679546,3535804,3119736,1
8540,3313319,3679667,3535653,3119649,1
8560,3313708,3679701,3535615,3120004,1
8580,3313564,3680271,3535447,3120032,1
8600,3313793,3680678,3535735,3120407,1
8620,3314137,3681082,3536159,3120799,1
8640,3314714,3681926,3536548,3121493,1
8660,3315401,3682600,3537294,3121923,1
8680,3316024,3683387,3537885,3122430,1
8700,3316976,3684134,3538754,3123267,1
8720,3317686,3685133,3539831,3123901,1
8740,3318742,3686178,3540819,3125236,1
8760,3319690,3687245,3541875,3126040,1
8780,3320678,3688078,3542873,3126893,1
8800,3321793,3689366,3544060,3127979,1
8820,3323020,3690571,3545144,3129054,1
8840,3324287,3691981,3546749,3130221,1
8860,3325623,3693177,3547810,3131377,1
8880,3326876,3694821,3549351,3132403,1
8900,3328459,3696108,3550826,3133837,1
8920,3329815,3697594,3552475,3135104,1
8940,3331178,3699220,3554105,3136538,1
8960,3332838,3701023,3555556,3137894,1
8980,3334089,3702362,3557192,3139080,1
9000,3335530,3703945,3558646,3140673,1
9020,3337195,3705915,3560522,3141783,1
9040,3337948,3706690,3561486,3142386,1
9060,3337140,3706357,3560845,3141857,1
9080,3335092,3704344,3558512,3140138,1
9100,3332172,3702447,3555548,3137780,1
9120,3329220,3700069,3552263,3135407,1
9140,3326012,3697636,3548553,3132809,1
9160,3323311,3695347,3545255,3130691,1
9180,3320805,3693624,3542318,3128663,1
9200,3317642,3691185,3539072,3126072,1
9220,3315353,3689302,3536036,3124513,1
9240,3313105,3687705,3533237,3122537,1
9260,3311418,3685862,3530611,3120881,1
9280,3309704,3684771,3528885,3119562,1
9300,3307996,3683375,3527098,3118312,1
9320,3307123,3682608,3525857,3117589,1
9340,3306830,3682661,3525347,3116984,1
9360,3306424,3682402,3525077,3116784,1
9380,3306374,3681990,3524655,3116627,1
9400,3306271,3682287,3524257,3116550,1
9420,3306203,3682247,3524468,3116700,1
9440,3306151,3682094,3524075,3116483,1
9460,3305847,3682006,3524326,3116043,1
9480,3305829,3682049,3524022,3115882,1
9500,3305743,3682258,3523820,3116151,1
9520,3305984,3682241,3524375,3116381,1
9540,3305954,3682587,3524340,3116545,1
9560,3306564,3682657,3524918,3116857,1
9580,3306848,3683118,3525719,3117292,1
9600,3307526,3683568,3526476,3118085,1
9620,3308106,3684317,3526947,3118434,1
9640,3308982,3685094,3527921,3119341,1
9660,3309828,3685704,3528941,3120112,1
9680,3310614,3686628,3530319,3120822,1
9700,3311577,3687347,3531268,3121808,1
9720,3312703,3688195,3532923,3122647,1
9740,3313874,3689198,3533892,3123737,1
9760,3314886,3690086,3535260,3124581,1
9780,3316175,3691025,3536636,3125558,1
9800,3317448,3692128,3537822,3126713,1
9820,3319091,3693304,3539617,3128138,1
9840,3320185,3694571,3541350,3129118,1
9860,3321651,3695496,3542746,3130346,1
9880,3322916,3696444,3544173,3131617,1
9900,3324465,3698165,3546493,3132718,1
9920,3325948,3699189,3547894,3134246,1
9940,3327440,3700660,3549613,3135456,1
9960,3328658,3701661,3551228,3136449,1
9980,3329591,3702413,3552231,3137134,1
10000,3328932,3701863,3551878,3136600,1
10020,3326752,3700012,3549844,3134635,1
10040,3323984,3697706,3546829,3132391,1
10060,3321239,3694956,3543780,3130006,1
10080,3318608,3692664,3540683,3127594,1
10100,3315508,3689948,3537620,3125759,1
10120,3313015,3687795,3534842,3123293,1
10140,3310704,3685340,3532063,3121627,1
10160,3308581,3683611,3529767,3119812,1
10180,3306294,3681525,3527260,3118053,1
10200,3304906,3679667,3525496,3116803,1
10220,3303535,3678290,3523940,3115509,1
10240,3302320,3677289,3522887,3114438,1
10260,3301810,3676182,3521856,3114117,1
10280,3301572,3675778,3521784,3114032,1
10300,3301499,3675390,3521656,3113671,1
10320,3301164,3674882,3521586,3113427,1
10340,3301559,3674822,3521488,3113771,1
10360,3301381,3674797,3521319,3113758,1
10380,3301168,3674234,3521578,3113376,1
10400,3301487,3673804,3521499,3113439,1
10420,3301068,3673385,3521439,3113416,1
10440,3301173,3673065,3521831,3113366,1
10460,3301011,3672960,3521919,3113911,1
10480,3301465,3672788,3522261,3113927,1
10500,3301999,3672644,3523057,3114504,1
10520,3302569,3672848,3523641,3114997,1
10540,3303321,3673243,3524253,3115374,1
10560,3303997,3673421,3525181,3115877,1
10580,3304675,3673890,3526279,3116674,1
10600,3305769,3674223,3527266,3117290,1
10620,3306294,3674871,3528367,3118329,1
10640,3307841,3675651,3529559,3119063,1
10660,3308687,3675955,3530807,3119772,1
10680,3309817,3676775,3531928,3120556,1
10700,3311096,3677785,3533962,3121788,1
10720,3312448,3678778,3534972,3122804,1
10740,3313978,3679569,3536550,3123935,1
10760,3315404,3680492,3538137,3125091,1
10780,3317131,3681737,3539816,3126072,1
10800,3318483,3683311,3541512,3127511,1
10820,3320036,3684183,3542992,3128722,1
10840,3321651,3685689,3544451,3129734,1
10860,3322952,3686881,3545843,3130777,1
10880,3323678,3687428,3546064,3130712,1
10900,3322155,3686212,3545042,3129298,1
10920,3320569,3684737,3542424,3127724,1
10940,3317040,3682016,3538939,3124829,1
10960,3314726,3679948,3535770,3122607,1
10980,3312448,3677986,3532592,3120216,1
11000,3310076,3675734,3529806,3118227,1
11020,3308153,3674267,3526960,3116240,1
11040,3306285,3672482,3524820,3114736,1
11060,3304107,3671101,3522598,3113019,1
11080,3303238,3669709,3520749,3111773,1
11100,3301801,3668740,3519041,3110568,1
11120,3301175,3667871,3517544,3109717,1
11140,3300539,3667535,3516939,3109404,1
11160,3300737,3667431,3516406,3109263,1
11180,3301035,3667799,3516777,3109281,1
11200,3301237,3668056,3516839,3109380,1
11220,3301506,3668258,3516573,3109498,1
11240,3301652,3668492,3516431,3109308,1
11260,3301642,3668688,3516505,3109594,1
11280,3301893,3668908,3516635,3109404,1
11300,3302293,3669378,3516559,3109827,1
11320,3302616,3669671,3517119,3110025,1
11340,3303074,3670345,3517448,3110180,1
11360,3303561,3670869,3517693,3110690,1
11380,3304526,3671484,3518414,3111221,1
11400,3305106,3672626,3519527,3111887,1
11420,3306321,3673685,3520199,3112704,1
11440,3307120,3674476,3521043,3113563,1
11460,3308331,3675706,3522325,3114700,1
11480,3309810,3676786,3523429,3115297,1
11500,3310979,3678133,3524549,3116433,1
11520,3312008,3679542,3525847,3117636,1
11540,3313678,3680974,3527181,3118748,1
11560,3314972,3682476,3528654,3120051,1
11580,3316468,3683691,3530093,3121307,1
11600,3317943,3685434,3531750,3122422,1
11620,3319410,3687159,3533051,3123888,1
11640,3321131,3688722,3534504,3125240,1
11660,3322748,3690634,3536559,3126595,1
11680,3324236,3692304,3538006,3128361,1
11700,3325984,3694280,3539891,3129562,1
11720,3327672,3696085,3541506,3130917,1
11740,3329358,3697723,3543506,3132471,1
11760,3330647,3699500,3545090,3133912,1
11780,3331811,3700468,3546045,3134498,1
11800,3331074,3700086,3545520,3133678,1
11820,3329282,3698403,3543050,3131963,1
11840,3326509,3696392,3540161,3129649,1
11860,3324103,3694195,3536958,3127480,1
11880,3321043,3691937,3534138,3125372,1
11900,3318725,3690101,3530943,3123247,1
11920,3315890,3687791,3527700,3121230,1
11940,3313795,3685933,3525124,3119260,1
11960,3311704,3683968,3522772,3117908,1
11980,3309747,3682583,3520441,3116091,1
12000,3308183,3681302,3518518,3114985,1
12020,3306632,3679665,3516870,3113880,1
12040,3305659,3679072,3515612,3112746,1
12060,3304877,3678349,3514905,3112473,1
12080,3304783,3677980,3514438,3112185,1
12100,3304830,3678167,3514395,3112152,1
12120,3304908,3678299,3514391,3112222,1
12140,3304749,3678207,3514746,3112275,1
12160,3305340,3678454,3514772,3112571,1
12180,3305592,3678783,3515062,3112613,1
12200,3305531,3678754,3514828,3112670,1
12220,3305735,3679115,3515411,3113061,1
12240,3306181,3679368,3515590,3113244,1
12260,3306443,3679667,3515874,3113631,1
12280,3307210,3680167,3516564,3113941,1
12300,3307820,3680734,3516888,3114568,1
12320,3308550,3681379,3517842,3115401,1
12340,3309564,3682113,3519036,3116100,1
12360,3310308,3682929,3519640,3116975,1
12380,3311515,3683760,3521131,3117953,1
12400,3312666,3684979,3522239,3119034,1
12420,3313712,3686083,3523482,3120050,1
12440,3314928,3686837,3524821,3121176,1
12460,3316258,3688218,3526091,3122197,1
12480,3317686,3689553,3527614,3123376,1
12500,3319209,3690947,3528983,3124783,1
12520,3320468,3692289,3530766,3125903,1
12540,3321936,3693528,3532185,3127211,1
12560,3323424,3694633,3534177,3128610,1
12580,3325187,3696567,3535953,3130204,1
12600,3326651,3698004,3537794,3131572,1
12620,3328417,3699800,3539404,3132962,1
12640,3329988,3701325,3541389,3134184,1
12660,3332276,3703291,3543378,3135935,1
12680,3334013,3704882,3545121,3137479,1
12700,3335259,3706113,3546880,3138446,1
12720,3335740,3706691,3547652,3138999,1
12740,3335069,3706087,3546699,3137901,1
12760,3332797,3704555,3545248,3136058,1
12780,3330534,3701939,3542465,3134086,1
12800,3327873,3699572,3539659,3131846,1
12820,3324970,3697446,3536621,3129741,1
12840,3322718,3695397,3534015,3128061,1
12860,3320404,3692974,3531444,3126442,1
12880,3318053,3691272,3529249,3124513,1
12900,3316186,3689542,3527617,3123306,1
12920,3314739,3687636,3525983,3122353,1
12940,3313213,3686461,3524095,3121423,1
12960,3311840,3685407,3523199,3120524,1
12980,3311256,3684408,3522642,3119857,1
13000,3311234,3683809,3522375,3119800,1
13020,3311116,3683403,3522710,3119881,1
13040,3311077,3683551,3522625,3119953,1
13060,3311270,3683515,3523282,3120316,1
13080,3311687,3683580,3523747,3120486,1
13100,3311572,3683383,3523777,3120231,1
13120,3311826,3683043,3524533,3120794,1
13140,3311734,3683150,3524882,3120838,1
13160,3312004,3682795,3525362,3121113,1
13180,3312335,3682780,3525830,3121531,1
13200,3312761,3683048,3526582,3122090,1
13220,3312983,3683106,3526969,3122343,1
13240,3313859,3683401,3528016,3122932,1
13260,3314411,3683651,3529039,3123712,1
13280,3315408,3684110,3530089,3124474,1
13300,3316528,3684531,3531085,3125189,1
13320,3317232,3685362,3532545,3126210,1
13340,3318105,3685785,3533982,3127018,1
13360,3319330,3686632,3535282,3127862,1
13380,3320128,3687188,3536661,3128884,1
13400,3321515,3688271,3538376,3130061,1
13420,3322546,3689034,3540055,3131211,1
13440,3324191,3690165,3541487,3132379,1
13460,3325246,3691045,3543378,3133417,1
13480,3326659,3692156,3544925,3134722,1
13500,3328169,3693369,3546802,3135565,1
13520,3329403,3694550,3548465,3137059,1
13540,3330787,3695677,3550093,3138630,1
13560,3332298,3696812,3552210,3139618,1
13580,3333683,3698035,3554026,3140871,1
13600,3335538,3699364,3555788,3142157,1
13620,3337131,3700379,3558094,3143498,1
13640,3337905,3701202,3558933,3144022,1
13660,3337702,3700698,3558967,3143273,1
13680,3335701,3698641,3557545,3141681,1
13700,3333170,3696475,3555310,3139890,1
13720,3330921,3694042,3552544,3137680,1
13740,3328237,3691567,3550229,3135665,1
13760,3325638,3689317,3547507,3133608,1
13780,3323888,3687285,3545627,3131950,1
13800,3321972,3685231,3543633,3130676,1
13820,3320705,3683403,3542129,3129519,1
13840,3319024,3681923,3540991,3128362,1
13860,3317979,3680536,3539585,3127320,1
13880,3317538,3679378,3538423,3126727,1
13900,3316853,3678632,3537526,3126066,1
13920,3316507,3678224,3537675,3125991,1
13940,3316606,3677925,3537857,3125937,1
13960,3316962,3677928,3538038,3125926,1
13980,3317380,3677769,3538341,3126313,1
14000,3317350,3677736,3538718,3126476,1
14020,3317465,3677370,3538824,3126227,1
14040,3317718,3677646,3538914,3126353,1
14060,3317870,3677359,3539232,3126336,1
14080,3318125,3677493,3539358,3126823,1
14100,3318587,3677661,3539986,3126991,1
14120,3318851,3677993,3540261,3127371,1
14140,3319755,3678613,3540873,3127724,1
14160,3320293,3679017,3541429,3128468,1
14180,3321103,3679773,3542056,3128680,1
14200,3321853,3680632,3542906,3129307,1
14220,3323060,3681535,3544079,3129955,1
14240,3324159,3682296,3545019,3130873,1
14260,3325368,3683700,3545851,3131694,1
14280,3326453,3684873,3547233,3132756,1
14300,3327650,3686118,3548329,3133617,1
14320,3328759,3687423,3549428,3134553,1
14340,3329951,3688983,3550894,3135688,1
14360,3331413,3690338,3552271,3136664,1
14380,3333362,3692468,3553757,3137736,1
14400,3334482,3693407,3555261,3138857,1
14420,3336162,3695315,3556755,3140130,1
14440,3337913,3696924,3558198,3141417,1
14460,3339191,3698805,3559946,3142805,1
14480,3341061,3700637,3561679,3144503,1
14500,3342546,3702377,3562996,3145227,1
14520,3343055,3703261,3563797,3145767,1
14540,3342425,3702883,3563000,3144828,1
14560,3340349,3701285,3560701,3142986,1
14580,3338044,3699315,3558113,3140998,1
14600,3335600,3697488,3555208,3139036,1
14620,3333071,3695655,3552231,3137031,1
14640,3330912,3693977,3549961,3135412,1
14660,3328799,3691943,3547723,3133736,1
14680,3326600,3690791,3545441,3132186,1
14700,3325062,3689459,3543688,3130778,1
14720,3323721,3688226,3542018,3129619,1
14740,3322648,3687366,3540590,3128627,1
14760,3321441,3686577,3539049,3128098,1
14780,3320838,3686097,3538167,3127571,1
14800,3320230,3686146,3537976,3127484,1
14820,3320597,3686165,3537872,3127573,1
14840,3320801,3686478,3538456,3127845,1
14860,3321094,3686956,3538701,3128453,1
14880,3321290,3687234,3538865,3128464,1
14900,3321500,3687652,3539053,3128657,1
14920,3321715,3688269,3539763,3129103,1
14940,3322038,3688393,3540080,3129457,1
14960,3322257,3688771,3540641,3129844,1
14980,3322693,3689130,3541412,3130176,1
15000,3323412,3690043,3542203,3130803,1
15020,3323879,3690668,3542645,3131544,1
15040,3324673,3691631,3543469,3131861,1
15060,3325655,3692655,3544864,3133059,1
15080,3326431,3693569,3545661,3134096,1
15100,3327474,3694901,3547042,3134911,1
15120,3328536,3695916,3548053,3135792,1
15140,3329847,3697209,3549713,3137047,1
15160,3331239,3698541,3550994,3138226,1
15180,3332178,3699900,3552460,3139534,1
15200,3333685,3700962,3553969,3140718,1
15220,3335103,3702632,3555696,3141910,1
15240,3336286,3704015,3557008,3143098,1
15260,3338094,3705641,3558525,3144535,1
15280,3339692,3707303,3560482,3145752,1
15300,3341435,3709326,3562033,3147223,1
15320,3342979,3710941,3564052,3148578,1
15340,3344572,3712845,3565871,3149783,1
15360,3346422,3714302,3567886,3151477,1
15380,3347904,3716280,3569486,3152610,1
15400,3349595,3718089,3571433,3154565,1
15420,3351620,3719872,3573489,3155716,1
15440,3352436,3720975,3574943,3156796,1
15460,3352176,3721395,3574813,3156388,1
15480,3350407,3719931,3573170,3154770,1
15500,3348112,3718333,3570440,3152754,1
15520,3345532,3715886,3568272,3150699,1
15540,3342757,3714060,3565672,3148793,1
15560,3340606,3712122,3562560,3146709,1
15580,3337919,3710006,3560121,3144921,1
15600,3336046,3708370,3557471,3143266,1
15620,3334114,3706576,3555487,3141904,1
15640,3332181,3705133,3553950,3140546,1
15660,3330664,3703883,3552172,3139558,1
15680,3329416,3702707,3550739,3138434,1
15700,3328260,3701714,3549628,3137397,1
15720,3327266,3700932,3548997,3137139,1
15740,3327070,3701006,3548648,3136689,1
15760,3327230,3700715,3548799,3136912,1
15780,3327393,3700743,3549098,3137080,1
15800,3327424,3700832,3549337,3136953,1
15820,3327344,3700651,3549783,3137076,1
15840,3327848,3700728,3549991,3137358,1
15860,3327433,3700739,3550350,3137563,1
15880,3327608,3700832,3550648,3137426,1
15900,3327689,3700664,3550934,3137887,1
15920,3328043,3701100,3551432,3137852,1
15940,3328332,3701267,3551953,3138412,1
15960,3328938,3701558,3552599,3138899,1
15980,3329040,3701767,3553384,3139305,1
16000,3330058,3702279,3554328,3140025,1
16020,3330640,3702991,3555118,3140422,1
16040,3331779,3703416,3556593,3141330,1
16060,3332367,3704336,3557720,3141894,1
16080,3333250,3704808,3558768,3142971,1
16100,3334320,3706083,3560208,3143870,1
16120,3335345,3706850,3561510,3144499,1
16140,3337270,3708161,3563191,3145839,1
16160,3337593,3708788,3564651,3146806,1
16180,3338870,3709708,3566094,3147361,1
16200,3340345,3711055,3567452,3148706,1
16220,3341671,3712046,3569344,3149698,1
16240,3343165,3713129,3570894,3150982,1
16260,3344287,3714366,3572714,3152104,1
16280,3345813,3715505,3574475,3153405,1
16300,3347075,3716475,3576162,3154656,1
16320,3348585,3717605,3577981,3155683,1
16340,3350165,3719398,3579726,3157082,1
16360,3351800,3720373,3581092,3157744,1
16380,3352019,3720767,3581642,3158014,1
16400,3350669,3719808,3580509,3156592,1
16420,3348349,3717305,3578109,3154637,1
16440,3345904,3715093,3575365,3152406,1
16460,3343583,3712796,3572777,3150396,1
16480,3340863,3710456,3570327,3148210,1
16500,3338547,3707949,3567843,3145976,1
16520,3336889,3706156,3565367,3143948,1
16540,3334997,3704391,3563586,3142526,1
16560,3333334,3702758,3561370,3140967,1
16580,3332208,3700985,3559664,3139467,1
16600,3330983,3699586,3558539,3138483,1
16620,3330393,3698556,3557407,3137779,1
16640,3329865,3697819,3556794,3137135,1
16660,3329834,3697471,3556585,3137116,1
16680,3329937,3697358,3556718,3136810,1
16700,3329901,3697175,3556583,3136783,1
16720,3330117,3696643,3556613,3136693,1
16740,3330151,3696569,3556776,3136657,1
16760,3329936,3696238,3556528,3136617,1
16780,3330173,3695900,3556830,3136271,1
16800,3330051,3695451,3556833,3136396,1
16820,3330551,3695336,3556849,3136190,1
16840,3330906,3695120,3557118,3136379,1
16860,3331448,3695569,3557403,3136483,1
16880,3331964,3695620,3558036,3136874,1
16900,3332087,3696187,3558351,3137006,1
16920,3333088,3696355,3559140,3137783,1
16940,3334074,3697114,3559758,3138185,1
16960,3334927,3697723,3560667,3138727,1
16980,3335968,3698437,3561536,3139299,1
17000,3337023,3699259,3562401,3140263,1
17020,3338056,3700228,3563357,3140778,1
17040,3339248,3701523,3564390,3141736,1
17060,3340441,3702264,3565655,3142495,1
17080,3341837,3703648,3566685,3143366,1
17100,3343059,3704924,3567951,3143991,1
17120,3344670,3706406,3569399,3145185,1
17140,3345976,3707946,3570686,3146154,1
17160,3347423,3709355,3572129,3147050,1
17180,3348869,3710913,3573633,3148083,1
17200,3350330,3712594,3575126,3149233,1
17220,3352054,3714455,3576692,3150427,1
17240,3353095,3715648,3577608,3151339,1
17260,3353019,3715712,3577488,3150843,1
17280,3351102,3714683,3575837,3149101,1
17300,3348622,3712922,3573326,3146813,1
17320,3346314,3710709,3570283,3144271,1
17340,3343815,3708778,3566948,3142189,1
17360,3341284,3706474,3564098,3139664,1
17380,3339049,3704640,3561343,3137858,1
17400,3336680,3703101,3558729,3135828,1
17420,3334747,3701678,3556328,3134316,1
17440,3333075,3700443,3554171,3132704,1
17460,3331708,3699298,3552301,3131319,1
17480,3330612,3698675,3550733,3130283,1
17500,3329471,3697767,3549283,3129354,1
17520,3329063,3697668,3548671,3129050,1
17540,3328673,3697496,3547998,3128480,1
17560,3329084,3697927,3547583,3128994,1
17580,3328929,3698154,3547881,3129050,1
17600,3329086,3698348,3547754,3128920,1
17620,3329147,3698628,3547761,3128993,1
17640,3329046,3698966,3547830,3129145,1
17660,3329448,3699132,3547624,3128996,1
17680,3329684,3699738,3547843,3129404,1
17700,3329822,3700005,3547890,3129441,1
17720,3330536,3700373,3548295,3129668,1
17740,3331150,3701066,3548693,3130101,1
17760,3331529,3701724,3549275,3130728,1
17780,3332204,3702461,3549785,3131311,1
17800,3332892,3703244,3550786,3131817,1
17820,3333649,3704030,3551795,3132996,1
17840,3334801,3705131,3552496,3133489,1
17860,3335955,3706425,3553627,3134645,1
17880,3336839,3707422,3554895,3135244,1
17900,3338407,3709256,3556300,3136955,1
17920,3338568,3709801,3557278,3137545,1
17940,3340536,3711909,3558767,3139080,1
17960,3341573,3712639,3560009,3139779,1
17980,3342803,3714062,3561441,3140845,1
18000,3344331,3715287,3562789,3142027,1
18020,3345690,3716650,3564453,3143616,1
18040,3347319,3718370,3565988,3144881,1
18060,3348733,3719657,3567384,3146199,1
18080,3350213,3721332,3568929,3147701,1
18100,3351798,3723147,3570435,3148948,1
18120,3353614,3724511,3572274,3150198,1
18140,3354890,3725901,3573640,3151424,1
18160,3355224,3726555,3573938,3151690,1
18180,3353823,3725448,3572735,3150657,1
18200,3351458,3723529,3570283,3148436,1
18220,3348490,3721511,3567153,3146090,1
18240,3345505,3719152,3563504,3143782,1
18260,3342559,3716990,3560601,3141594,1
18280,3339723,3714651,3557159,3139396,1
18300,3337178,3712664,3554249,3137447,1
18320,3334803,3710641,3551096,3135485,1
18340,3332667,3708548,3548642,3133574,1
18360,3330663,3706901,3546261,3132109,1
18380,3328783,3705669,3543962,3130631,1
18400,3327329,3704453,3542316,3129530,1
18420,3326132,3703310,3540938,3128693,1
18440,3325325,3702827,3540241,3128327,1
18460,3324777,3702186,3539438,3128236,1
18480,3324847,3702022,3539521,3128181,1
18500,3324664,3702355,3539464,3127962,1
18520,3324320,3701763,3539553,3128061,1
18540,3324499,3701763,3539751,3128142,1
18560,3324440,3701507,3539721,3128100,1
18580,3324518,3701480,3539923,3128174,1
18600,3324575,3701068,3540051,3128479,1
18620,3324418,3700894,3539827,3128238,1
18640,3324716,3701195,3540326,3128735,1
18660,3324731,3701021,3540682,3128861,1
18680,3325132,3701465,3541236,3129422,1
18700,3325971,3701508,3541937,3129917,1
18720,3326405,3701754,3542606,3130448,1
18740,3326940,3702262,3543563,3131211,1
18760,3327808,3703182,3544598,3131761,1
18780,3328690,3703355,3545711,3132648,1
18800,3329507,3703877,3546527,3133620,1
18820,3330625,3704511,3548015,3134294,1
18840,3331716,3705585,3549067,3135314,1
18860,3332531,3706208,3550299,3136198,1
18880,3333674,3707007,3552016,3137684,1
18900,3334850,3707855,3553247,3138481,1
18920,3336252,3708820,3554617,3139583,1
18940,3337380,3709798,3556343,3140942,1
18960,3338891,3710964,3557871,3142180,1
18980,3340158,3712179,3559770,3143245,1
19000,3341692,3713382,3561403,3144628,1
19020,3342716,3714355,3562977,3145610,1
19040,3344410,3715269,3565002,3147044,1
19060,3345787,3716370,3566279,3148487,1
19080,3346450,3716886,3567544,3148922,1
19100,3345579,3716100,3566811,3148131,1
19120,3343301,3714192,3564673,3146269,1
19140,3340655,3711668,3561747,3143797,1
19160,3337768,3709217,3558374,3141596,1
19180,3335204,3706762,3554938,3139702,1
19200,3332586,3704457,3552160,3137301,1
19220,3330156,3701814,3549700,3135639,1
19240,3327855,3700010,3546916,3134007,1
19260,3325780,3697821,3544101,3132503,1
19280,3324059,3696266,3542249,3130998,1
19300,3322916,3694748,3540703,3130261,1
19320,3321540,3693639,3538936,3129141,1
19340,3320646,3692689,3537923,3128359,1
19360,3320438,3691869,3537009,3128284,1
19380,3320300,3691501,3537112,3128406,1
19400,3319928,3691251,3536672,3128295,1
19420,3320359,3691251,3536822,3128370,1
19440,3320355,3691218,3536693,3128483,1
19460,3320279,3690780,3536674,3128440,1
19480,3320121,3690702,3536442,3128387,1
19500,3320255,3690377,3536444,3128391,1
19520,3320168,3690326,3536253,3128612,1
19540,3320559,3690583,3536338,3128752,1
19560,3320778,3690520,3536348,3129001,1
19580,3321307,3690755,3536971,3129627,1
19600,3321508,3691442,3537230,3129898,1
19620,3322291,3691897,3537624,3130321,1
19640,3322790,3691994,3538403,3130899,1
19660,3323831,3692687,3538930,3131532,1
19680,3325056,3693958,3540006,3132607,1
19700,3325895,3695040,3540889,3133419,1
19720,3326702,3695940,3541710,3134118,1
19740,3328141,3697262,3542915,3135208,1
19760,3329329,3698401,3544073,3135949,1
19780,3330419,3699867,3544940,3137021,1
19800,3331961,3701208,3546366,3138124,1
19820,3333001,3702747,3547642,3139303,1
19840,3334588,3703985,3549205,3140476,1
19860,3336001,3705575,3550560,3141619,1
19880,3337219,3707203,3552261,3142739,1
19900,3339212,3708870,3553889,3144150,1
19920,3340583,3710464,3555112,3145485,1
19940,3341965,3711975,3556478,3146250,1
19960,3341858,3712267,3556347,3146148,1
19980,3340474,3711053,3554628,3144645,1
20000,3337914,3709513,3551908,3143086,1
